 % time (yr) / global POFe flux (mol yr-1) / global POFe density (mol m-2 yr-1)
    2010.500  0.2637612E+10  0.7177618E-05
    2011.500  0.2688921E+10  0.7317242E-05
    2012.500  0.2686355E+10  0.7310260E-05
    2013.500  0.2683347E+10  0.7302073E-05
    2014.500  0.2680605E+10  0.7294613E-05
    2015.500  0.2677648E+10  0.7286567E-05
    2016.500  0.2674518E+10  0.7278049E-05
    2017.500  0.2671050E+10  0.7268610E-05
    2018.500  0.2666891E+10  0.7257292E-05
    2019.500  0.2664044E+10  0.7249544E-05
    2020.500  0.2660651E+10  0.7240313E-05
    2021.500  0.2656031E+10  0.7227739E-05
    2022.500  0.2651711E+10  0.7215985E-05
    2023.500  0.2648397E+10  0.7206966E-05
    2024.500  0.2644464E+10  0.7196262E-05
    2025.500  0.2639860E+10  0.7183735E-05
    2026.500  0.2635503E+10  0.7171879E-05
    2027.500  0.2631925E+10  0.7162141E-05
    2028.500  0.2626640E+10  0.7147761E-05
    2029.500  0.2621650E+10  0.7134181E-05
    2030.500  0.2616674E+10  0.7120640E-05
    2031.500  0.2611969E+10  0.7107836E-05
    2032.500  0.2607759E+10  0.7096379E-05
    2033.500  0.2601945E+10  0.7080559E-05
    2034.500  0.2596757E+10  0.7066441E-05
    2035.500  0.2591351E+10  0.7051728E-05
    2036.500  0.2586354E+10  0.7038132E-05
    2037.500  0.2580973E+10  0.7023488E-05
    2038.500  0.2575580E+10  0.7008814E-05
    2039.500  0.2570038E+10  0.6993730E-05
    2040.500  0.2564483E+10  0.6978616E-05
    2041.500  0.2559371E+10  0.6964705E-05
    2042.500  0.2553495E+10  0.6948713E-05
    2043.500  0.2547732E+10  0.6933031E-05
    2044.500  0.2542108E+10  0.6917726E-05
    2045.500  0.2535853E+10  0.6900705E-05
    2046.500  0.2530288E+10  0.6885562E-05
    2047.500  0.2524220E+10  0.6869050E-05
    2048.500  0.2518324E+10  0.6853005E-05
    2049.500  0.2511402E+10  0.6834169E-05
    2050.500  0.2505699E+10  0.6818650E-05
    2051.500  0.2499602E+10  0.6802056E-05
    2052.500  0.2493948E+10  0.6786670E-05
    2053.500  0.2488147E+10  0.6770884E-05
    2054.500  0.2482604E+10  0.6755802E-05
    2055.500  0.2477600E+10  0.6742185E-05
    2056.500  0.2471479E+10  0.6725526E-05
    2057.500  0.2465849E+10  0.6710208E-05
    2058.500  0.2460711E+10  0.6696225E-05
    2059.500  0.2455046E+10  0.6680809E-05
    2060.500  0.2449186E+10  0.6664862E-05
    2061.500  0.2443512E+10  0.6649422E-05
    2062.500  0.2438359E+10  0.6635400E-05
    2063.500  0.2432781E+10  0.6620220E-05
    2064.500  0.2427403E+10  0.6605585E-05
    2065.500  0.2421629E+10  0.6589872E-05
    2066.500  0.2416282E+10  0.6575323E-05
    2067.500  0.2411070E+10  0.6561138E-05
    2068.500  0.2405294E+10  0.6545420E-05
    2069.500  0.2399737E+10  0.6530298E-05
    2070.500  0.2394017E+10  0.6514733E-05
    2071.500  0.2388793E+10  0.6500518E-05
    2072.500  0.2383357E+10  0.6485725E-05
    2073.500  0.2377638E+10  0.6470161E-05
    2074.500  0.2372085E+10  0.6455050E-05
    2075.500  0.2366387E+10  0.6439545E-05
    2076.500  0.2360556E+10  0.6423678E-05
    2077.500  0.2355107E+10  0.6408850E-05
    2078.500  0.2349746E+10  0.6394259E-05
    2079.500  0.2344147E+10  0.6379024E-05
    2080.500  0.2338812E+10  0.6364506E-05
    2081.500  0.2333535E+10  0.6350146E-05
    2082.500  0.2327682E+10  0.6334220E-05
    2083.500  0.2322217E+10  0.6319348E-05
    2084.500  0.2316800E+10  0.6304607E-05
    2085.500  0.2310901E+10  0.6288553E-05
    2086.500  0.2305657E+10  0.6274283E-05
    2087.500  0.2300020E+10  0.6258944E-05
    2088.500  0.2294054E+10  0.6242707E-05
    2089.500  0.2288927E+10  0.6228756E-05
    2090.500  0.2283416E+10  0.6213760E-05
    2091.500  0.2277881E+10  0.6198696E-05
    2092.500  0.2272532E+10  0.6184140E-05
    2093.500  0.2266678E+10  0.6168211E-05
    2094.500  0.2261452E+10  0.6153990E-05
    2095.500  0.2255722E+10  0.6138396E-05
    2096.500  0.2249873E+10  0.6122481E-05
    2097.500  0.2243853E+10  0.6106098E-05
    2098.500  0.2238670E+10  0.6091993E-05
    2099.500  0.2232985E+10  0.6076523E-05
