 % time (yr) / global pCO2_13C flux (mol yr-1) / global pCO2_13C (o/oo) NOTE: is the atmospheric forcing flux *net* of the sea-air gas exchange flux.
    2010.500 -0.2030764E+13       -35.834
    2011.500 -0.1757356E+13       -36.355
    2012.500 -0.1598144E+13       -35.777
    2013.500 -0.1482211E+13       -34.854
    2014.500 -0.1389061E+13       -33.796
    2015.500 -0.1313101E+13       -32.638
    2016.500 -0.1248799E+13       -31.486
    2017.500 -0.1189130E+13       -30.366
    2018.500 -0.1140193E+13       -29.259
    2019.500 -0.1095192E+13       -28.201
    2020.500 -0.1049323E+13       -27.198
    2021.500 -0.1017807E+13       -26.253
    2022.500 -0.9843562E+12       -25.344
    2023.500 -0.9496556E+12       -24.463
    2024.500 -0.9224286E+12       -23.647
    2025.500 -0.8952148E+12       -22.900
    2026.500 -0.8688497E+12       -22.205
    2027.500 -0.8472841E+12       -21.538
    2028.500 -0.8247700E+12       -20.899
    2029.500 -0.8053579E+12       -20.335
    2030.500 -0.7850538E+12       -19.801
    2031.500 -0.7659095E+12       -19.302
    2032.500 -0.7480994E+12       -18.784
    2033.500 -0.7313402E+12       -18.396
    2034.500 -0.7134716E+12       -17.935
    2035.500 -0.7001328E+12       -17.643
    2036.500 -0.6843882E+12       -17.310
    2037.500 -0.6703827E+12       -16.959
    2038.500 -0.6571645E+12       -16.633
    2039.500 -0.6437911E+12       -16.349
    2040.500 -0.6289137E+12       -15.987
    2041.500 -0.6189483E+12       -15.838
    2042.500 -0.6073062E+12       -15.594
    2043.500 -0.5959599E+12       -15.370
    2044.500 -0.5836372E+12       -15.160
    2045.500 -0.5739282E+12       -14.957
    2046.500 -0.5632296E+12       -14.816
    2047.500 -0.5535854E+12       -14.637
    2048.500 -0.5411780E+12       -14.409
    2049.500 -0.5339366E+12       -14.248
    2050.500 -0.5234858E+12       -14.163
    2051.500 -0.5153509E+12       -14.031
    2052.500 -0.5049243E+12       -13.882
    2053.500 -0.4977410E+12       -13.758
    2054.500 -0.4887946E+12       -13.601
    2055.500 -0.4810553E+12       -13.482
    2056.500 -0.4718054E+12       -13.279
    2057.500 -0.4661932E+12       -13.297
    2058.500 -0.4571218E+12       -13.135
    2059.500 -0.4526773E+12       -13.116
    2060.500 -0.4447772E+12       -13.047
    2061.500 -0.4384260E+12       -12.975
    2062.500 -0.4303372E+12       -12.850
    2063.500 -0.4243598E+12       -12.766
    2064.500 -0.4173610E+12       -12.687
    2065.500 -0.4110534E+12       -12.625
    2066.500 -0.4048225E+12       -12.537
    2067.500 -0.3976130E+12       -12.481
    2068.500 -0.3922614E+12       -12.419
    2069.500 -0.3859391E+12       -12.342
    2070.500 -0.3798588E+12       -12.259
    2071.500 -0.3733616E+12       -12.245
    2072.500 -0.3677066E+12       -12.165
    2073.500 -0.3611653E+12       -12.092
    2074.500 -0.3560306E+12       -12.057
    2075.500 -0.3493184E+12       -12.004
    2076.500 -0.3444403E+12       -11.947
    2077.500 -0.3371692E+12       -11.836
    2078.500 -0.3338904E+12       -11.841
    2079.500 -0.3269709E+12       -11.747
    2080.500 -0.3222082E+12       -11.605
    2081.500 -0.3212085E+12       -11.682
    2082.500 -0.3107112E+12       -11.628
    2083.500 -0.3050705E+12       -11.585
    2084.500 -0.2989766E+12       -11.552
    2085.500 -0.2962911E+12       -11.510
    2086.500 -0.2903294E+12       -11.423
    2087.500 -0.2876609E+12       -11.418
    2088.500 -0.2798544E+12       -11.385
    2089.500 -0.2756379E+12       -11.372
    2090.500 -0.2698979E+12       -11.362
    2091.500 -0.2639301E+12       -11.290
    2092.500 -0.2606316E+12       -11.258
    2093.500 -0.2549922E+12       -11.233
    2094.500 -0.2472943E+12       -10.989
    2095.500 -0.2461427E+12       -11.150
    2096.500 -0.2405082E+12       -11.085
    2097.500 -0.2338114E+12       -10.891
    2098.500 -0.2303060E+12       -11.106
    2099.500 -0.2216932E+12       -10.813
