 % time (yr) / global POFe flux (mol yr-1) / global POFe density (mol m-2 yr-1)
    2010.500  0.2635662E+10  0.7172310E-05
    2011.500  0.2684464E+10  0.7305113E-05
    2012.500  0.2680308E+10  0.7293804E-05
    2013.500  0.2676057E+10  0.7282237E-05
    2014.500  0.2672270E+10  0.7271930E-05
    2015.500  0.2668398E+10  0.7261393E-05
    2016.500  0.2664143E+10  0.7249815E-05
    2017.500  0.2660486E+10  0.7239863E-05
    2018.500  0.2655793E+10  0.7227093E-05
    2019.500  0.2651658E+10  0.7215840E-05
    2020.500  0.2648023E+10  0.7205949E-05
    2021.500  0.2642741E+10  0.7191574E-05
    2022.500  0.2638425E+10  0.7179830E-05
    2023.500  0.2634349E+10  0.7168739E-05
    2024.500  0.2629843E+10  0.7156477E-05
    2025.500  0.2625035E+10  0.7143391E-05
    2026.500  0.2620381E+10  0.7130728E-05
    2027.500  0.2615353E+10  0.7117045E-05
    2028.500  0.2610767E+10  0.7104565E-05
    2029.500  0.2605436E+10  0.7090059E-05
    2030.500  0.2600359E+10  0.7076242E-05
    2031.500  0.2595492E+10  0.7062998E-05
    2032.500  0.2590413E+10  0.7049178E-05
    2033.500  0.2585095E+10  0.7034705E-05
    2034.500  0.2580017E+10  0.7020887E-05
    2035.500  0.2573854E+10  0.7004116E-05
    2036.500  0.2568499E+10  0.6989544E-05
    2037.500  0.2563163E+10  0.6975022E-05
    2038.500  0.2557789E+10  0.6960400E-05
    2039.500  0.2552175E+10  0.6945121E-05
    2040.500  0.2546983E+10  0.6930993E-05
    2041.500  0.2540383E+10  0.6913032E-05
    2042.500  0.2534725E+10  0.6897636E-05
    2043.500  0.2528715E+10  0.6881281E-05
    2044.500  0.2522901E+10  0.6865460E-05
    2045.500  0.2516885E+10  0.6849087E-05
    2046.500  0.2510523E+10  0.6831776E-05
    2047.500  0.2504495E+10  0.6815373E-05
    2048.500  0.2498877E+10  0.6800083E-05
    2049.500  0.2492502E+10  0.6782736E-05
    2050.500  0.2486024E+10  0.6765109E-05
    2051.500  0.2480012E+10  0.6748748E-05
    2052.500  0.2474509E+10  0.6733771E-05
    2053.500  0.2468591E+10  0.6717669E-05
    2054.500  0.2462986E+10  0.6702415E-05
    2055.500  0.2457493E+10  0.6687468E-05
    2056.500  0.2451951E+10  0.6672386E-05
    2057.500  0.2445944E+10  0.6656041E-05
    2058.500  0.2440554E+10  0.6641374E-05
    2059.500  0.2434677E+10  0.6625380E-05
    2060.500  0.2429041E+10  0.6610044E-05
    2061.500  0.2423193E+10  0.6594127E-05
    2062.500  0.2418012E+10  0.6580028E-05
    2063.500  0.2412502E+10  0.6565035E-05
    2064.500  0.2406935E+10  0.6549886E-05
    2065.500  0.2401303E+10  0.6534559E-05
    2066.500  0.2395817E+10  0.6519631E-05
    2067.500  0.2390443E+10  0.6505008E-05
    2068.500  0.2384864E+10  0.6489827E-05
    2069.500  0.2379265E+10  0.6474590E-05
    2070.500  0.2373795E+10  0.6459703E-05
    2071.500  0.2368037E+10  0.6444035E-05
    2072.500  0.2362596E+10  0.6429229E-05
    2073.500  0.2357188E+10  0.6414513E-05
    2074.500  0.2351388E+10  0.6398727E-05
    2075.500  0.2345695E+10  0.6383237E-05
    2076.500  0.2340146E+10  0.6368136E-05
    2077.500  0.2334956E+10  0.6354012E-05
    2078.500  0.2329331E+10  0.6338706E-05
    2079.500  0.2323841E+10  0.6323765E-05
    2080.500  0.2319049E+10  0.6310725E-05
    2081.500  0.2312819E+10  0.6293774E-05
    2082.500  0.2307171E+10  0.6278404E-05
    2083.500  0.2301813E+10  0.6263822E-05
    2084.500  0.2296409E+10  0.6249117E-05
    2085.500  0.2290836E+10  0.6233951E-05
    2086.500  0.2285564E+10  0.6219605E-05
    2087.500  0.2280162E+10  0.6204904E-05
    2088.500  0.2274283E+10  0.6188906E-05
    2089.500  0.2268616E+10  0.6173485E-05
    2090.500  0.2263022E+10  0.6158261E-05
    2091.500  0.2257659E+10  0.6143667E-05
    2092.500  0.2252064E+10  0.6128442E-05
    2093.500  0.2246372E+10  0.6112953E-05
    2094.500  0.2241302E+10  0.6099158E-05
    2095.500  0.2235186E+10  0.6082514E-05
    2096.500  0.2229729E+10  0.6067663E-05
    2097.500  0.2224162E+10  0.6052515E-05
    2098.500  0.2218084E+10  0.6035975E-05
    2099.500  0.2212910E+10  0.6021894E-05
