 % time (yr) / global pCO2 flux (mol yr-1) / global pCO2 density (mol m-2 yr-1)  NOTE: is the atmospheric forcing flux *net* of the sea-air gas exchange flux.
    2010.500 -0.1900542E+15      -0.517
    2011.500 -0.1645546E+15      -0.448
    2012.500 -0.1495577E+15      -0.407
    2013.500 -0.1385771E+15      -0.377
    2014.500 -0.1297276E+15      -0.353
    2015.500 -0.1224883E+15      -0.333
    2016.500 -0.1163529E+15      -0.317
    2017.500 -0.1106669E+15      -0.301
    2018.500 -0.1059929E+15      -0.288
    2019.500 -0.1017000E+15      -0.277
    2020.500 -0.9734113E+14      -0.265
    2021.500 -0.9432685E+14      -0.257
    2022.500 -0.9114257E+14      -0.248
    2023.500 -0.8785107E+14      -0.239
    2024.500 -0.8526179E+14      -0.232
    2025.500 -0.8268379E+14      -0.225
    2026.500 -0.8019225E+14      -0.218
    2027.500 -0.7814907E+14      -0.213
    2028.500 -0.7602336E+14      -0.207
    2029.500 -0.7419181E+14      -0.202
    2030.500 -0.7228236E+14      -0.197
    2031.500 -0.7048419E+14      -0.192
    2032.500 -0.6880920E+14      -0.187
    2033.500 -0.6724146E+14      -0.183
    2034.500 -0.6556811E+14      -0.178
    2035.500 -0.6432335E+14      -0.175
    2036.500 -0.6285578E+14      -0.171
    2037.500 -0.6154770E+14      -0.167
    2038.500 -0.6031436E+14      -0.164
    2039.500 -0.5907007E+14      -0.161
    2040.500 -0.5768405E+14      -0.157
    2041.500 -0.5676149E+14      -0.154
    2042.500 -0.5568021E+14      -0.152
    2043.500 -0.5462764E+14      -0.149
    2044.500 -0.5348678E+14      -0.146
    2045.500 -0.5258632E+14      -0.143
    2046.500 -0.5159873E+14      -0.140
    2047.500 -0.5070609E+14      -0.138
    2048.500 -0.4955831E+14      -0.135
    2049.500 -0.4888726E+14      -0.133
    2050.500 -0.4792630E+14      -0.130
    2051.500 -0.4717531E+14      -0.128
    2052.500 -0.4621394E+14      -0.126
    2053.500 -0.4555082E+14      -0.124
    2054.500 -0.4472504E+14      -0.122
    2055.500 -0.4401161E+14      -0.120
    2056.500 -0.4315659E+14      -0.117
    2057.500 -0.4264399E+14      -0.116
    2058.500 -0.4180743E+14      -0.114
    2059.500 -0.4140016E+14      -0.113
    2060.500 -0.4067481E+14      -0.111
    2061.500 -0.4009110E+14      -0.109
    2062.500 -0.3934652E+14      -0.107
    2063.500 -0.3879671E+14      -0.106
    2064.500 -0.3815385E+14      -0.104
    2065.500 -0.3757490E+14      -0.102
    2066.500 -0.3700205E+14      -0.101
    2067.500 -0.3634103E+14      -0.099
    2068.500 -0.3584967E+14      -0.098
    2069.500 -0.3526915E+14      -0.096
    2070.500 -0.3471063E+14      -0.094
    2071.500 -0.3411644E+14      -0.093
    2072.500 -0.3359702E+14      -0.091
    2073.500 -0.3299693E+14      -0.090
    2074.500 -0.3252669E+14      -0.089
    2075.500 -0.3191177E+14      -0.087
    2076.500 -0.3146434E+14      -0.086
    2077.500 -0.3079672E+14      -0.084
    2078.500 -0.3049738E+14      -0.083
    2079.500 -0.2986255E+14      -0.081
    2080.500 -0.2942340E+14      -0.080
    2081.500 -0.2933435E+14      -0.080
    2082.500 -0.2837414E+14      -0.077
    2083.500 -0.2785786E+14      -0.076
    2084.500 -0.2730047E+14      -0.074
    2085.500 -0.2705411E+14      -0.074
    2086.500 -0.2650745E+14      -0.072
    2087.500 -0.2626369E+14      -0.071
    2088.500 -0.2555009E+14      -0.070
    2089.500 -0.2516480E+14      -0.068
    2090.500 -0.2464053E+14      -0.067
    2091.500 -0.2409395E+14      -0.066
    2092.500 -0.2379207E+14      -0.065
    2093.500 -0.2327669E+14      -0.063
    2094.500 -0.2256848E+14      -0.061
    2095.500 -0.2246700E+14      -0.061
    2096.500 -0.2195129E+14      -0.060
    2097.500 -0.2133592E+14      -0.058
    2098.500 -0.2102057E+14      -0.057
    2099.500 -0.2022852E+14      -0.055
