 % time (yr) / mean (land) surface air temperature (degrees C)
       0.500   -4.624846
       1.500   -2.659410
       2.500   -1.245199
       3.500   -0.400393
       4.500    0.152643
       5.500    0.523057
       6.500    0.826589
       7.500    1.093040
       8.500    1.339413
       9.500    1.552365
      10.500    1.733538
      11.500    1.905567
      12.500    2.077603
      13.500    2.242216
      14.500    2.399772
      15.500    2.553596
      16.500    2.696914
      17.500    2.833646
      18.500    2.965117
      19.500    3.094104
      21.500    3.336923
      23.500    3.566868
      25.500    3.783768
      27.500    3.986352
      29.500    4.168815
      31.500    4.332899
      33.500    4.486014
      35.500    4.628725
      37.500    4.764341
      39.500    4.887745
      41.500    5.002232
      43.500    5.108413
      45.500    5.207373
      47.500    5.296791
      49.500    5.378420
      51.500    5.452565
      53.500    5.522823
      55.500    5.592386
      57.500    5.656724
      59.500    5.717631
      61.500    5.771801
      63.500    5.816653
      65.500    5.863418
      67.500    5.913823
      69.500    5.961772
      71.500    6.007384
      73.500    6.052018
      75.500    6.094465
      77.500    6.138745
      79.500    6.178091
      81.500    6.217579
      83.500    6.255650
      85.500    6.289551
      87.500    6.321275
      89.500    6.353003
      91.500    6.386316
      93.500    6.417246
      95.500    6.447575
      97.500    6.475759
      99.500    6.503236
     104.500    6.567815
     109.500    6.627281
     114.500    6.681671
     119.500    6.735852
     124.500    6.784262
     129.500    6.827944
     134.500    6.870369
     139.500    6.910333
     144.500    6.948323
     149.500    6.981892
     154.500    7.014804
     159.500    7.045423
     164.500    7.073040
     169.500    7.100384
     174.500    7.126719
     179.500    7.155393
     184.500    7.179875
     189.500    7.202889
     194.500    7.222611
     199.500    7.241718
     204.500    7.259350
     209.500    7.277769
     214.500    7.294516
     219.500    7.310502
     224.500    7.325327
     229.500    7.340653
     234.500    7.354031
     239.500    7.367434
     244.500    7.380221
     249.500    7.392439
     254.500    7.403881
     259.500    7.416738
     264.500    7.424574
     269.500    7.430345
     274.500    7.439656
     279.500    7.446428
     284.500    7.454958
     289.500    7.461497
     294.500    7.467783
     299.500    7.474214
     304.500    7.480564
     309.500    7.486933
     314.500    7.492717
     319.500    7.498316
     324.500    7.503248
     329.500    7.507731
     334.500    7.514564
     339.500    7.516970
     344.500    7.520226
     349.500    7.526800
     354.500    7.528395
     359.500    7.531479
     364.500    7.535604
     369.500    7.537770
     374.500    7.541732
     379.500    7.544149
     384.500    7.547085
     389.500    7.549276
     394.500    7.551234
     399.500    7.554940
     404.500    7.558375
     409.500    7.558783
     414.500    7.560593
     419.500    7.564132
     424.500    7.566114
     429.500    7.569438
     434.500    7.569682
     439.500    7.572404
     444.500    7.573083
     449.500    7.574467
     454.500    7.575997
     459.500    7.577615
     464.500    7.580218
     469.500    7.581611
     474.500    7.583838
     479.500    7.586624
     484.500    7.588918
     489.500    7.591615
     494.500    7.592726
     499.500    7.594778
     504.500    7.596343
     509.500    7.597798
     514.500    7.599789
     519.500    7.601475
     524.500    7.603301
     529.500    7.604595
     534.500    7.606482
     539.500    7.607878
     544.500    7.609946
     549.500    7.613722
     554.500    7.615307
     559.500    7.614122
     564.500    7.616539
     569.500    7.616972
     574.500    7.618056
     579.500    7.620536
     584.500    7.621774
     589.500    7.622430
     594.500    7.623291
     599.500    7.625168
     604.500    7.626192
     609.500    7.627313
     614.500    7.629285
     619.500    7.630353
     624.500    7.630968
     629.500    7.632217
     634.500    7.633500
     639.500    7.635575
     644.500    7.637472
     649.500    7.638396
     654.500    7.639893
     659.500    7.641067
     664.500    7.642912
     669.500    7.643457
     674.500    7.644589
     679.500    7.646309
     684.500    7.649051
     689.500    7.650344
     694.500    7.651176
     699.500    7.650985
     704.500    7.654503
     709.500    7.653562
     714.500    7.657278
     719.500    7.657628
     724.500    7.659229
     729.500    7.661507
     734.500    7.661544
     739.500    7.662736
     744.500    7.663626
     749.500    7.664605
     754.500    7.667176
     759.500    7.666726
     764.500    7.668279
     769.500    7.668980
     774.500    7.670297
     779.500    7.671844
     784.500    7.672385
     789.500    7.674364
     794.500    7.676806
     799.500    7.676696
     804.500    7.679285
     809.500    7.679245
     814.500    7.680634
     819.500    7.682464
     824.500    7.684246
     829.500    7.685538
     834.500    7.686628
     839.500    7.689449
     844.500    7.691711
     849.500    7.690710
     854.500    7.691729
     859.500    7.695076
     864.500    7.696201
     869.500    7.696449
     874.500    7.699984
     879.500    7.700921
     884.500    7.703478
     889.500    7.703001
     894.500    7.703571
     899.500    7.704405
     904.500    7.705286
     909.500    7.706479
     914.500    7.706998
     919.500    7.709676
     924.500    7.711129
     929.500    7.710002
     934.500    7.711162
     939.500    7.713131
     944.500    7.712885
     949.500    7.715178
     954.500    7.716224
     959.500    7.718384
     964.500    7.717991
     969.500    7.718799
     974.500    7.719811
     979.500    7.721072
     984.500    7.723497
     989.500    7.723988
     994.500    7.724728
     999.500    7.725486
    1019.500    7.731457
    1039.500    7.735667
    1059.500    7.743227
    1079.500    7.748468
    1099.500    7.752415
    1119.500    7.756684
    1139.500    7.761053
    1159.500    7.764360
    1179.500    7.767503
    1199.500    7.772360
    1219.500    7.777854
    1239.500    7.783584
    1259.500    7.787115
    1279.500    7.791916
    1299.500    7.796529
    1319.500    7.799302
    1339.500    7.802456
    1359.500    7.807865
    1379.500    7.810601
    1399.500    7.814044
    1419.500    7.818356
    1439.500    7.820003
    1459.500    7.825155
    1479.500    7.829969
    1499.500    7.835182
    1519.500    7.838144
    1539.500    7.840711
    1559.500    7.843862
    1579.500    7.846136
    1599.500    7.847522
    1619.500    7.851414
    1639.500    7.855270
    1659.500    7.858160
    1679.500    7.861445
    1699.500    7.865082
    1719.500    7.866815
    1739.500    7.870019
    1759.500    7.873232
    1779.500    7.876498
    1799.500    7.879612
    1819.500    7.883448
    1839.500    7.885958
    1859.500    7.888956
    1879.500    7.890992
    1899.500    7.894996
    1919.500    7.897648
    1939.500    7.900453
    1959.500    7.902145
    1979.500    7.904928
    1999.500    7.906932
    2049.500    7.911378
    2099.500    7.918419
    2149.500    7.924724
    2199.500    7.930938
    2249.500    7.936299
    2299.500    7.942152
    2349.500    7.947217
    2399.500    7.950799
    2449.500    7.956192
    2499.500    7.960821
    2549.500    7.964165
    2599.500    7.968027
    2649.500    7.971223
    2699.500    7.975263
    2749.500    7.979045
    2799.500    7.981747
    2849.500    7.984208
    2899.500    7.985110
    2949.500    7.988176
    2999.500    7.988906
    3049.500    7.990445
    3099.500    7.991835
    3149.500    7.992817
    3199.500    7.992400
    3249.500    7.991985
    3299.500    7.992571
    3349.500    7.992265
    3399.500    7.993537
    3449.500    7.993202
    3499.500    7.992767
    3549.500    7.993268
    3599.500    7.993197
    3649.500    7.994617
    3699.500    7.993077
    3749.500    7.993589
    3799.500    7.993869
    3849.500    7.994026
    3899.500    7.992447
    3949.500    7.991947
    3999.500    7.993728
    4049.500    7.992823
    4099.500    7.992288
    4149.500    7.992502
    4199.500    7.992038
    4249.500    7.993219
    4299.500    7.992615
    4349.500    7.992962
    4399.500    7.991659
    4449.500    7.991833
    4499.500    7.991011
    4549.500    7.993047
    4599.500    7.992080
    4649.500    7.991429
    4699.500    7.992544
    4749.500    7.992863
    4799.500    7.991801
    4849.500    7.992148
    4899.500    7.992629
    4949.500    7.994402
    4999.500    7.993888
    5049.500    7.994140
    5099.500    7.995319
    5149.500    7.994571
    5199.500    7.995324
    5249.500    7.996596
    5299.500    7.994820
    5349.500    7.995458
    5399.500    7.995591
    5449.500    7.996215
    5499.500    7.996528
    5549.500    7.997253
    5599.500    7.997554
    5649.500    7.996617
    5699.500    7.996411
    5749.500    7.997475
    5799.500    7.998035
    5849.500    7.997135
    5899.500    7.997243
    5949.500    7.996975
    5999.500    7.996649
    6049.500    7.998931
    6099.500    7.998146
    6149.500    7.997923
    6199.500    7.997668
    6249.500    7.997551
    6299.500    7.997978
    6349.500    7.998930
    6399.500    7.997819
    6449.500    7.997580
    6499.500    7.997609
    6549.500    7.998234
    6599.500    7.998775
    6649.500    7.998179
    6699.500    7.998275
    6749.500    7.998589
    6799.500    7.999873
    6849.500    8.001117
    6899.500    7.999415
    6949.500    7.999840
    6999.500    8.000388
    7049.500    8.000194
    7099.500    7.999863
    7149.500    8.000295
    7199.500    7.999690
    7249.500    8.000378
    7299.500    7.999916
    7349.500    8.000080
    7399.500    8.000305
    7449.500    8.001616
    7499.500    8.000907
    7549.500    8.000281
    7599.500    8.000672
    7649.500    8.000191
    7699.500    8.000469
    7749.500    8.000397
    7799.500    8.000775
    7849.500    8.001205
    7899.500    8.001439
    7949.500    8.000508
    7999.500    8.000466
    8049.500    8.001674
    8099.500    8.001166
    8149.500    8.000418
    8199.500    8.000847
    8249.500    8.000559
    8299.500    8.000607
    8349.500    8.001679
    8399.500    8.000708
    8449.500    8.001131
    8499.500    8.001791
    8549.500    8.001234
    8599.500    8.001074
    8649.500    8.001958
    8699.500    8.001475
    8749.500    8.000594
    8799.500    8.001638
    8849.500    8.001041
    8899.500    8.001616
    8949.500    8.002068
    8999.500    8.000642
    9049.500    8.000955
    9099.500    8.001081
    9149.500    8.000741
    9199.500    8.000378
    9249.500    8.002197
    9299.500    8.001100
    9349.500    8.001696
    9399.500    8.000493
    9449.500    8.001277
    9499.500    8.000632
    9549.500    8.000765
    9599.500    8.000841
    9649.500    8.000911
    9699.500    8.001202
    9749.500    8.000529
    9799.500    8.000797
    9849.500    8.000369
    9899.500    8.001136
    9949.500    8.000004
    9999.500    8.001664
