 % time (yr) / global pCO2 sea->air transfer flux (mol yr-1) / global pCO2 density (mol m-2 yr-1)
    2010.500 -0.1904028E+15      -0.518
    2011.500 -0.1653448E+15      -0.450
    2012.500 -0.1504995E+15      -0.410
    2013.500 -0.1396382E+15      -0.380
    2014.500 -0.1309032E+15      -0.356
    2015.500 -0.1237716E+15      -0.337
    2016.500 -0.1176778E+15      -0.320
    2017.500 -0.1122727E+15      -0.306
    2018.500 -0.1075473E+15      -0.293
    2019.500 -0.1034797E+15      -0.282
    2020.500 -0.9926531E+14      -0.270
    2021.500 -0.9594229E+14      -0.261
    2022.500 -0.9276882E+14      -0.252
    2023.500 -0.8997224E+14      -0.245
    2024.500 -0.8760974E+14      -0.238
    2025.500 -0.8485741E+14      -0.231
    2026.500 -0.8271334E+14      -0.225
    2027.500 -0.8052357E+14      -0.219
    2028.500 -0.7854907E+14      -0.214
    2029.500 -0.7672907E+14      -0.209
    2030.500 -0.7494810E+14      -0.204
    2031.500 -0.7341334E+14      -0.200
    2032.500 -0.7160523E+14      -0.195
    2033.500 -0.7050584E+14      -0.192
    2034.500 -0.6874630E+14      -0.187
    2035.500 -0.6785258E+14      -0.185
    2036.500 -0.6611808E+14      -0.180
    2037.500 -0.6513608E+14      -0.177
    2038.500 -0.6397545E+14      -0.174
    2039.500 -0.6256864E+14      -0.170
    2040.500 -0.6146790E+14      -0.167
    2041.500 -0.6067610E+14      -0.165
    2042.500 -0.5965330E+14      -0.162
    2043.500 -0.5849360E+14      -0.159
    2044.500 -0.5801833E+14      -0.158
    2045.500 -0.5677527E+14      -0.155
    2046.500 -0.5583311E+14      -0.152
    2047.500 -0.5517400E+14      -0.150
    2048.500 -0.5442146E+14      -0.148
    2049.500 -0.5374569E+14      -0.146
    2050.500 -0.5276233E+14      -0.144
    2051.500 -0.5214186E+14      -0.142
    2052.500 -0.5139983E+14      -0.140
    2053.500 -0.5071062E+14      -0.138
    2054.500 -0.5009942E+14      -0.136
    2055.500 -0.4962658E+14      -0.135
    2056.500 -0.4891891E+14      -0.133
    2057.500 -0.4822816E+14      -0.131
    2058.500 -0.4750315E+14      -0.129
    2059.500 -0.4718182E+14      -0.128
    2060.500 -0.4646157E+14      -0.126
    2061.500 -0.4606191E+14      -0.125
    2062.500 -0.4557066E+14      -0.124
    2063.500 -0.4498630E+14      -0.122
    2064.500 -0.4450899E+14      -0.121
    2065.500 -0.4407103E+14      -0.120
    2066.500 -0.4353691E+14      -0.118
    2067.500 -0.4304248E+14      -0.117
    2068.500 -0.4273907E+14      -0.116
    2069.500 -0.4217197E+14      -0.115
    2070.500 -0.4164158E+14      -0.113
    2071.500 -0.4106786E+14      -0.112
    2072.500 -0.4065950E+14      -0.111
    2073.500 -0.4032930E+14      -0.110
    2074.500 -0.3986576E+14      -0.108
    2075.500 -0.3928600E+14      -0.107
    2076.500 -0.3917220E+14      -0.107
    2077.500 -0.3896932E+14      -0.106
    2078.500 -0.3829678E+14      -0.104
    2079.500 -0.3780200E+14      -0.103
    2080.500 -0.3763142E+14      -0.102
    2081.500 -0.3734555E+14      -0.102
    2082.500 -0.3671763E+14      -0.100
    2083.500 -0.3673317E+14      -0.100
    2084.500 -0.3613079E+14      -0.098
    2085.500 -0.3608340E+14      -0.098
    2086.500 -0.3563038E+14      -0.097
    2087.500 -0.3519786E+14      -0.096
    2088.500 -0.3507766E+14      -0.095
    2089.500 -0.3470252E+14      -0.094
    2090.500 -0.3432592E+14      -0.093
    2091.500 -0.3413775E+14      -0.093
    2092.500 -0.3383333E+14      -0.092
    2093.500 -0.3353367E+14      -0.091
    2094.500 -0.3308904E+14      -0.090
    2095.500 -0.3289443E+14      -0.090
    2096.500 -0.3270951E+14      -0.089
    2097.500 -0.3222264E+14      -0.088
    2098.500 -0.3212387E+14      -0.087
    2099.500 -0.3177774E+14      -0.086
