 % time (yr) / surface air temperature (degrees C)
    2010.500   13.336595
    2011.500   13.344950
    2012.500   13.351253
    2013.500   13.356533
    2014.500   13.360123
    2015.500   13.363474
    2016.500   13.366883
    2017.500   13.369400
    2018.500   13.371243
    2019.500   13.373407
    2020.500   13.375279
    2021.500   13.377282
    2022.500   13.379480
    2023.500   13.379121
    2024.500   13.380073
    2025.500   13.380413
    2026.500   13.381052
    2027.500   13.380933
    2028.500   13.380990
    2029.500   13.381532
    2030.500   13.380378
    2031.500   13.380492
    2032.500   13.380590
    2033.500   13.380789
    2034.500   13.380145
    2035.500   13.380938
    2036.500   13.379884
    2037.500   13.380203
    2038.500   13.378496
    2039.500   13.377683
    2040.500   13.376293
    2041.500   13.376252
    2042.500   13.375326
    2043.500   13.374749
    2044.500   13.373787
    2045.500   13.372669
    2046.500   13.372353
    2047.500   13.371163
    2048.500   13.370676
    2049.500   13.369677
    2050.500   13.368773
    2051.500   13.367717
    2052.500   13.367219
    2053.500   13.366287
    2054.500   13.365976
    2055.500   13.365178
    2056.500   13.363907
    2057.500   13.362826
    2058.500   13.361795
    2059.500   13.360989
    2060.500   13.360253
    2061.500   13.358965
    2062.500   13.357754
    2063.500   13.357128
    2064.500   13.356214
    2065.500   13.355215
    2066.500   13.353729
    2067.500   13.354183
    2068.500   13.353834
    2069.500   13.352401
    2070.500   13.350375
    2071.500   13.349778
    2072.500   13.348051
    2073.500   13.346876
    2074.500   13.345433
    2075.500   13.344901
    2076.500   13.344080
    2077.500   13.343548
    2078.500   13.342549
    2079.500   13.341650
    2080.500   13.340009
    2081.500   13.339039
    2082.500   13.338184
    2083.500   13.337760
    2084.500   13.336045
    2085.500   13.335625
    2086.500   13.335045
    2087.500   13.333949
    2088.500   13.332784
    2089.500   13.331802
    2090.500   13.330765
    2091.500   13.330261
    2092.500   13.328853
    2093.500   13.328517
    2094.500   13.327958
    2095.500   13.326992
    2096.500   13.325537
    2097.500   13.325072
    2098.500   13.324438
    2099.500   13.323254
