 % time (yr) / temperature (C) / _surT (C) / _benT (degrees C)
    2010.500    3.680856   19.807446    1.466925
    2011.500    3.682764   19.813830    1.467283
    2012.500    3.684602   19.817502    1.467644
    2013.500    3.686382   19.822941    1.468007
    2014.500    3.688106   19.827327    1.468370
    2015.500    3.689792   19.830189    1.468735
    2016.500    3.691431   19.832599    1.469099
    2017.500    3.693032   19.835264    1.469463
    2018.500    3.694592   19.837384    1.469827
    2019.500    3.696120   19.838274    1.470191
    2020.500    3.697610   19.834815    1.470555
    2021.500    3.699071   19.836370    1.470920
    2022.500    3.700504   19.832022    1.471285
    2023.500    3.701907   19.840802    1.471650
    2024.500    3.703276   19.847573    1.472016
    2025.500    3.704621   19.842095    1.472383
    2026.500    3.705945   19.843110    1.472751
    2027.500    3.707243   19.845413    1.473121
    2028.500    3.708517   19.843662    1.473495
    2029.500    3.709776   19.844372    1.473870
    2030.500    3.711014   19.846222    1.474243
    2031.500    3.712230   19.847025    1.474619
    2032.500    3.713430   19.839095    1.474996
    2033.500    3.714620   19.845221    1.475375
    2034.500    3.715782   19.840196    1.475756
    2035.500    3.716936   19.844593    1.476139
    2036.500    3.718066   19.839660    1.476524
    2037.500    3.719191   19.839142    1.476911
    2038.500    3.720299   19.844203    1.477300
    2039.500    3.721382   19.842608    1.477691
    2040.500    3.722454   19.841206    1.478083
    2041.500    3.723506   19.845230    1.478477
    2042.500    3.724547   19.845009    1.478873
    2043.500    3.725575   19.839434    1.479269
    2044.500    3.726600   19.847213    1.479667
    2045.500    3.727603   19.845152    1.480066
    2046.500    3.728602   19.837233    1.480467
    2047.500    3.729582   19.844447    1.480869
    2048.500    3.730560   19.838712    1.481273
    2049.500    3.731518   19.843586    1.481678
    2050.500    3.732471   19.838791    1.482085
    2051.500    3.733407   19.842957    1.482493
    2052.500    3.734339   19.838188    1.482902
    2053.500    3.735253   19.841245    1.483312
    2054.500    3.736165   19.836054    1.483724
    2055.500    3.737062   19.840468    1.484136
    2056.500    3.737946   19.841782    1.484549
    2057.500    3.738817   19.840003    1.484963
    2058.500    3.739689   19.835206    1.485377
    2059.500    3.740543   19.838316    1.485791
    2060.500    3.741389   19.835241    1.486205
    2061.500    3.742230   19.838271    1.486620
    2062.500    3.743061   19.837904    1.487036
    2063.500    3.743881   19.834856    1.487452
    2064.500    3.744696   19.834671    1.487869
    2065.500    3.745505   19.834644    1.488286
    2066.500    3.746304   19.834078    1.488704
    2067.500    3.747095   19.828258    1.489123
    2068.500    3.747893   19.829117    1.489541
    2069.500    3.748671   19.830389    1.489960
    2070.500    3.749444   19.831287    1.490379
    2071.500    3.750204   19.829596    1.490798
    2072.500    3.750959   19.830516    1.491218
    2073.500    3.751706   19.830357    1.491637
    2074.500    3.752443   19.829174    1.492057
    2075.500    3.753186   19.822283    1.492476
    2076.500    3.753917   19.825962    1.492896
    2077.500    3.754650   19.825165    1.493315
    2078.500    3.755365   19.822827    1.493735
    2079.500    3.756077   19.819797    1.494154
    2080.500    3.756781   19.823126    1.494574
    2081.500    3.757475   19.825096    1.494993
    2082.500    3.758159   19.821682    1.495412
    2083.500    3.758854   19.820434    1.495831
    2084.500    3.759529   19.819725    1.496249
    2085.500    3.760211   19.819750    1.496667
    2086.500    3.760877   19.818591    1.497085
    2087.500    3.761540   19.815431    1.497502
    2088.500    3.762191   19.818021    1.497919
    2089.500    3.762834   19.816689    1.498336
    2090.500    3.763481   19.816253    1.498753
    2091.500    3.764120   19.815469    1.499169
    2092.500    3.764760   19.815631    1.499586
    2093.500    3.765385   19.814898    1.500001
    2094.500    3.766007   19.809887    1.500416
    2095.500    3.766624   19.808919    1.500831
    2096.500    3.767235   19.812541    1.501244
    2097.500    3.767841   19.806932    1.501658
    2098.500    3.768444   19.808147    1.502071
    2099.500    3.769035   19.806271    1.502484
