 % time (yr) / global det flux (mol yr-1) / global det density (mol m-2 yr-1)
    2010.500  0.1580841E+14  0.4301873E-01
    2011.500  0.1604245E+14  0.4365562E-01
    2012.500  0.1593907E+14  0.4337430E-01
    2013.500  0.1583569E+14  0.4309297E-01
    2014.500  0.1573231E+14  0.4281164E-01
    2015.500  0.1562893E+14  0.4253031E-01
    2016.500  0.1552555E+14  0.4224898E-01
    2017.500  0.1542216E+14  0.4196766E-01
    2018.500  0.1531878E+14  0.4168633E-01
    2019.500  0.1521540E+14  0.4140500E-01
    2020.500  0.1511202E+14  0.4112367E-01
    2021.500  0.1500864E+14  0.4084235E-01
    2022.500  0.1490526E+14  0.4056102E-01
    2023.500  0.1480187E+14  0.4027969E-01
    2024.500  0.1469849E+14  0.3999836E-01
    2025.500  0.1459511E+14  0.3971703E-01
    2026.500  0.1449173E+14  0.3943571E-01
    2027.500  0.1438835E+14  0.3915438E-01
    2028.500  0.1428497E+14  0.3887305E-01
    2029.500  0.1418158E+14  0.3859172E-01
    2030.500  0.1407820E+14  0.3831040E-01
    2031.500  0.1397482E+14  0.3802907E-01
    2032.500  0.1387144E+14  0.3774774E-01
    2033.500  0.1376806E+14  0.3746641E-01
    2034.500  0.1366468E+14  0.3718508E-01
    2035.500  0.1356130E+14  0.3690376E-01
    2036.500  0.1345791E+14  0.3662243E-01
    2037.500  0.1335453E+14  0.3634110E-01
    2038.500  0.1325115E+14  0.3605977E-01
    2039.500  0.1314777E+14  0.3577845E-01
    2040.500  0.1304439E+14  0.3549712E-01
    2041.500  0.1294101E+14  0.3521579E-01
    2042.500  0.1283762E+14  0.3493446E-01
    2043.500  0.1273424E+14  0.3465313E-01
    2044.500  0.1263086E+14  0.3437181E-01
    2045.500  0.1252748E+14  0.3409048E-01
    2046.500  0.1242410E+14  0.3380915E-01
    2047.500  0.1232072E+14  0.3352782E-01
    2048.500  0.1221733E+14  0.3324650E-01
    2049.500  0.1211395E+14  0.3296517E-01
    2050.500  0.1202744E+14  0.3272975E-01
    2051.500  0.1195852E+14  0.3254220E-01
    2052.500  0.1188960E+14  0.3235465E-01
    2053.500  0.1182068E+14  0.3216710E-01
    2054.500  0.1175176E+14  0.3197954E-01
    2055.500  0.1168284E+14  0.3179199E-01
    2056.500  0.1161392E+14  0.3160444E-01
    2057.500  0.1154500E+14  0.3141689E-01
    2058.500  0.1147607E+14  0.3122934E-01
    2059.500  0.1140715E+14  0.3104178E-01
    2060.500  0.1133823E+14  0.3085423E-01
    2061.500  0.1126931E+14  0.3066668E-01
    2062.500  0.1120039E+14  0.3047913E-01
    2063.500  0.1113147E+14  0.3029158E-01
    2064.500  0.1106255E+14  0.3010403E-01
    2065.500  0.1099363E+14  0.2991647E-01
    2066.500  0.1092471E+14  0.2972892E-01
    2067.500  0.1085578E+14  0.2954137E-01
    2068.500  0.1078686E+14  0.2935382E-01
    2069.500  0.1071794E+14  0.2916627E-01
    2070.500  0.1064902E+14  0.2897871E-01
    2071.500  0.1058010E+14  0.2879116E-01
    2072.500  0.1051118E+14  0.2860361E-01
    2073.500  0.1044226E+14  0.2841606E-01
    2074.500  0.1037334E+14  0.2822851E-01
    2075.500  0.1030442E+14  0.2804095E-01
    2076.500  0.1023550E+14  0.2785340E-01
    2077.500  0.1016657E+14  0.2766585E-01
    2078.500  0.1009765E+14  0.2747830E-01
    2079.500  0.1002873E+14  0.2729075E-01
    2080.500  0.9959811E+13  0.2710320E-01
    2081.500  0.9890890E+13  0.2691564E-01
    2082.500  0.9821969E+13  0.2672809E-01
    2083.500  0.9753048E+13  0.2654054E-01
    2084.500  0.9684127E+13  0.2635299E-01
    2085.500  0.9615206E+13  0.2616544E-01
    2086.500  0.9546285E+13  0.2597788E-01
    2087.500  0.9477364E+13  0.2579033E-01
    2088.500  0.9408443E+13  0.2560278E-01
    2089.500  0.9339522E+13  0.2541523E-01
    2090.500  0.9270600E+13  0.2522768E-01
    2091.500  0.9201679E+13  0.2504013E-01
    2092.500  0.9132758E+13  0.2485257E-01
    2093.500  0.9063837E+13  0.2466502E-01
    2094.500  0.8994916E+13  0.2447747E-01
    2095.500  0.8925995E+13  0.2428992E-01
    2096.500  0.8857074E+13  0.2410237E-01
    2097.500  0.8788153E+13  0.2391481E-01
    2098.500  0.8719232E+13  0.2372726E-01
    2099.500  0.8650311E+13  0.2353971E-01
