 % time (yr) / global pCO2 flux (mol yr-1) / global pCO2 density (mol m-2 yr-1)  NOTE: is the atmospheric forcing flux *net* of the sea-air gas exchange flux.
    2010.500 -0.1898039E+15      -0.517
    2011.500 -0.1640201E+15      -0.446
    2012.500 -0.1489743E+15      -0.405
    2013.500 -0.1379710E+15      -0.375
    2014.500 -0.1291080E+15      -0.351
    2015.500 -0.1218698E+15      -0.332
    2016.500 -0.1156717E+15      -0.315
    2017.500 -0.1100168E+15      -0.299
    2018.500 -0.1053415E+15      -0.287
    2019.500 -0.1010760E+15      -0.275
    2020.500 -0.9718659E+14      -0.264
    2021.500 -0.9385221E+14      -0.255
    2022.500 -0.8993972E+14      -0.245
    2023.500 -0.8713097E+14      -0.237
    2024.500 -0.8445289E+14      -0.230
    2025.500 -0.8232413E+14      -0.224
    2026.500 -0.7958950E+14      -0.217
    2027.500 -0.7756088E+14      -0.211
    2028.500 -0.7530541E+14      -0.205
    2029.500 -0.7336673E+14      -0.200
    2030.500 -0.7161826E+14      -0.195
    2031.500 -0.6962274E+14      -0.189
    2032.500 -0.6861611E+14      -0.187
    2033.500 -0.6637977E+14      -0.181
    2034.500 -0.6509877E+14      -0.177
    2035.500 -0.6350310E+14      -0.173
    2036.500 -0.6225246E+14      -0.169
    2037.500 -0.6084743E+14      -0.166
    2038.500 -0.5963368E+14      -0.162
    2039.500 -0.5843676E+14      -0.159
    2040.500 -0.5714880E+14      -0.156
    2041.500 -0.5602394E+14      -0.152
    2042.500 -0.5497160E+14      -0.150
    2043.500 -0.5382290E+14      -0.146
    2044.500 -0.5285119E+14      -0.144
    2045.500 -0.5176243E+14      -0.141
    2046.500 -0.5101208E+14      -0.139
    2047.500 -0.4985201E+14      -0.136
    2048.500 -0.4913160E+14      -0.134
    2049.500 -0.4806343E+14      -0.131
    2050.500 -0.4724354E+14      -0.129
    2051.500 -0.4637146E+14      -0.126
    2052.500 -0.4549942E+14      -0.124
    2053.500 -0.4486508E+14      -0.122
    2054.500 -0.4388714E+14      -0.119
    2055.500 -0.4341668E+14      -0.118
    2056.500 -0.4251742E+14      -0.116
    2057.500 -0.4180981E+14      -0.114
    2058.500 -0.4122576E+14      -0.112
    2059.500 -0.4033820E+14      -0.110
    2060.500 -0.3983555E+14      -0.108
    2061.500 -0.3935598E+14      -0.107
    2062.500 -0.3850235E+14      -0.105
    2063.500 -0.3780533E+14      -0.103
    2064.500 -0.3739203E+14      -0.102
    2065.500 -0.3678661E+14      -0.100
    2066.500 -0.3611051E+14      -0.098
    2067.500 -0.3551863E+14      -0.097
    2068.500 -0.3494056E+14      -0.095
    2069.500 -0.3441815E+14      -0.094
    2070.500 -0.3384655E+14      -0.092
    2071.500 -0.3325617E+14      -0.090
    2072.500 -0.3253922E+14      -0.089
    2073.500 -0.3222243E+14      -0.088
    2074.500 -0.3144185E+14      -0.086
    2075.500 -0.3113608E+14      -0.085
    2076.500 -0.3032020E+14      -0.083
    2077.500 -0.2996291E+14      -0.082
    2078.500 -0.2948262E+14      -0.080
    2079.500 -0.2877924E+14      -0.078
    2080.500 -0.2861552E+14      -0.078
    2081.500 -0.2797263E+14      -0.076
    2082.500 -0.2738715E+14      -0.075
    2083.500 -0.2703583E+14      -0.074
    2084.500 -0.2641932E+14      -0.072
    2085.500 -0.2614214E+14      -0.071
    2086.500 -0.2547471E+14      -0.069
    2087.500 -0.2511360E+14      -0.068
    2088.500 -0.2457031E+14      -0.067
    2089.500 -0.2402571E+14      -0.065
    2090.500 -0.2362819E+14      -0.064
    2091.500 -0.2316384E+14      -0.063
    2092.500 -0.2242607E+14      -0.061
    2093.500 -0.2199103E+14      -0.060
    2094.500 -0.2155208E+14      -0.059
    2095.500 -0.2107636E+14      -0.057
    2096.500 -0.2056291E+14      -0.056
    2097.500 -0.2009176E+14      -0.055
    2098.500 -0.1958694E+14      -0.053
    2099.500 -0.1904454E+14      -0.052
