 % time (yr) / temperature (C) / _surT (C) / _benT (degrees C)
    2010.500    3.680856   19.807446    1.466925
    2011.500    3.682764   19.813835    1.467283
    2012.500    3.684602   19.817517    1.467644
    2013.500    3.686383   19.822985    1.468007
    2014.500    3.688109   19.827330    1.468370
    2015.500    3.689796   19.830205    1.468735
    2016.500    3.691437   19.832675    1.469099
    2017.500    3.693037   19.833958    1.469463
    2018.500    3.694596   19.837648    1.469827
    2019.500    3.696123   19.839270    1.470191
    2020.500    3.697609   19.842014    1.470555
    2021.500    3.699067   19.845320    1.470920
    2022.500    3.700497   19.839274    1.471285
    2023.500    3.701899   19.840834    1.471652
    2024.500    3.703275   19.840611    1.472019
    2025.500    3.704627   19.849077    1.472387
    2026.500    3.705955   19.842758    1.472756
    2027.500    3.707261   19.845771    1.473126
    2028.500    3.708553   19.843831    1.473499
    2029.500    3.709825   19.840344    1.473874
    2030.500    3.711073   19.844675    1.474249
    2031.500    3.712303   19.837305    1.474625
    2032.500    3.713533   19.843960    1.475003
    2033.500    3.714725   19.839319    1.475382
    2034.500    3.715906   19.845256    1.475763
    2035.500    3.717064   19.843155    1.476147
    2036.500    3.718199   19.846932    1.476533
    2037.500    3.719319   19.845024    1.476920
    2038.500    3.720429   19.846954    1.477310
    2039.500    3.721522   19.848620    1.477701
    2040.500    3.722600   19.848314    1.478093
    2041.500    3.723671   19.845956    1.478488
    2042.500    3.724725   19.847953    1.478884
    2043.500    3.725763   19.846737    1.479281
    2044.500    3.726795   19.845348    1.479680
    2045.500    3.727814   19.845941    1.480080
    2046.500    3.728824   19.847614    1.480482
    2047.500    3.729822   19.847093    1.480885
    2048.500    3.730812   19.847702    1.481290
    2049.500    3.731786   19.844066    1.481696
    2050.500    3.732769   19.836125    1.482104
    2051.500    3.733722   19.844676    1.482512
    2052.500    3.734671   19.839235    1.482923
    2053.500    3.735606   19.844141    1.483334
    2054.500    3.736530   19.840456    1.483747
    2055.500    3.737445   19.845079    1.484160
    2056.500    3.738349   19.843750    1.484574
    2057.500    3.739252   19.839206    1.484988
    2058.500    3.740140   19.842676    1.485403
    2059.500    3.741020   19.840729    1.485819
    2060.500    3.741889   19.842960    1.486235
    2061.500    3.742758   19.842599    1.486651
    2062.500    3.743610   19.841482    1.487068
    2063.500    3.744461   19.838359    1.487485
    2064.500    3.745303   19.841380    1.487903
    2065.500    3.746138   19.841375    1.488322
    2066.500    3.746965   19.840370    1.488742
    2067.500    3.747786   19.840501    1.489162
    2068.500    3.748600   19.840344    1.489581
    2069.500    3.749407   19.838544    1.490001
    2070.500    3.750209   19.838312    1.490421
    2071.500    3.751004   19.837019    1.490842
    2072.500    3.751789   19.831479    1.491263
    2073.500    3.752586   19.829625    1.491684
    2074.500    3.753354   19.832986    1.492105
    2075.500    3.754121   19.833012    1.492526
    2076.500    3.754878   19.828341    1.492947
    2077.500    3.755627   19.831146    1.493367
    2078.500    3.756372   19.833051    1.493788
    2079.500    3.757106   19.829711    1.494208
    2080.500    3.757850   19.827259    1.494627
    2081.500    3.758581   19.833567    1.495047
    2082.500    3.759301   19.830462    1.495466
    2083.500    3.760018   19.829842    1.495885
    2084.500    3.760724   19.829433    1.496304
    2085.500    3.761432   19.829272    1.496723
    2086.500    3.762131   19.826300    1.497141
    2087.500    3.762837   19.827724    1.497559
    2088.500    3.763533   19.824669    1.497978
    2089.500    3.764234   19.820971    1.498396
    2090.500    3.764923   19.823302    1.498814
    2091.500    3.765610   19.823978    1.499232
    2092.500    3.766284   19.820853    1.499649
    2093.500    3.766955   19.820677    1.500067
    2094.500    3.767620   19.821520    1.500484
    2095.500    3.768278   19.820059    1.500900
    2096.500    3.768933   19.820248    1.501316
    2097.500    3.769582   19.820309    1.501731
    2098.500    3.770228   19.818195    1.502145
    2099.500    3.770868   19.819095    1.502558
