 % time (yr) / global det flux (mol yr-1) / global det density (mol m-2 yr-1)
    2010.500  0.1435632E+14  0.3906723E-01
    2011.500  0.1456887E+14  0.3964563E-01
    2012.500  0.1447498E+14  0.3939014E-01
    2013.500  0.1438110E+14  0.3913465E-01
    2014.500  0.1428721E+14  0.3887917E-01
    2015.500  0.1419333E+14  0.3862368E-01
    2016.500  0.1409944E+14  0.3836819E-01
    2017.500  0.1400556E+14  0.3811271E-01
    2018.500  0.1391167E+14  0.3785722E-01
    2019.500  0.1381779E+14  0.3760173E-01
    2020.500  0.1372390E+14  0.3734625E-01
    2021.500  0.1363002E+14  0.3709076E-01
    2022.500  0.1353613E+14  0.3683528E-01
    2023.500  0.1344224E+14  0.3657979E-01
    2024.500  0.1334836E+14  0.3632430E-01
    2025.500  0.1325447E+14  0.3606882E-01
    2026.500  0.1316059E+14  0.3581333E-01
    2027.500  0.1306670E+14  0.3555784E-01
    2028.500  0.1297282E+14  0.3530236E-01
    2029.500  0.1287893E+14  0.3504687E-01
    2030.500  0.1278505E+14  0.3479138E-01
    2031.500  0.1269116E+14  0.3453590E-01
    2032.500  0.1259728E+14  0.3428041E-01
    2033.500  0.1250339E+14  0.3402493E-01
    2034.500  0.1240950E+14  0.3376944E-01
    2035.500  0.1231562E+14  0.3351395E-01
    2036.500  0.1222173E+14  0.3325847E-01
    2037.500  0.1212785E+14  0.3300298E-01
    2038.500  0.1203396E+14  0.3274749E-01
    2039.500  0.1194008E+14  0.3249201E-01
    2040.500  0.1184619E+14  0.3223652E-01
    2041.500  0.1175231E+14  0.3198104E-01
    2042.500  0.1165842E+14  0.3172555E-01
    2043.500  0.1156454E+14  0.3147006E-01
    2044.500  0.1147065E+14  0.3121458E-01
    2045.500  0.1137676E+14  0.3095909E-01
    2046.500  0.1128288E+14  0.3070360E-01
    2047.500  0.1118899E+14  0.3044812E-01
    2048.500  0.1109511E+14  0.3019263E-01
    2049.500  0.1100122E+14  0.2993714E-01
    2050.500  0.1092266E+14  0.2972335E-01
    2051.500  0.1086007E+14  0.2955303E-01
    2052.500  0.1079748E+14  0.2938270E-01
    2053.500  0.1073489E+14  0.2921238E-01
    2054.500  0.1067230E+14  0.2904206E-01
    2055.500  0.1060971E+14  0.2887173E-01
    2056.500  0.1054712E+14  0.2870141E-01
    2057.500  0.1048453E+14  0.2853108E-01
    2058.500  0.1042194E+14  0.2836076E-01
    2059.500  0.1035935E+14  0.2819043E-01
    2060.500  0.1029676E+14  0.2802011E-01
    2061.500  0.1023417E+14  0.2784979E-01
    2062.500  0.1017158E+14  0.2767946E-01
    2063.500  0.1010899E+14  0.2750914E-01
    2064.500  0.1004640E+14  0.2733881E-01
    2065.500  0.9983805E+13  0.2716849E-01
    2066.500  0.9921215E+13  0.2699816E-01
    2067.500  0.9858624E+13  0.2682784E-01
    2068.500  0.9796034E+13  0.2665752E-01
    2069.500  0.9733444E+13  0.2648719E-01
    2070.500  0.9670853E+13  0.2631687E-01
    2071.500  0.9608263E+13  0.2614654E-01
    2072.500  0.9545673E+13  0.2597622E-01
    2073.500  0.9483082E+13  0.2580589E-01
    2074.500  0.9420492E+13  0.2563557E-01
    2075.500  0.9357902E+13  0.2546525E-01
    2076.500  0.9295312E+13  0.2529492E-01
    2077.500  0.9232721E+13  0.2512460E-01
    2078.500  0.9170131E+13  0.2495427E-01
    2079.500  0.9107541E+13  0.2478395E-01
    2080.500  0.9044950E+13  0.2461363E-01
    2081.500  0.8982360E+13  0.2444330E-01
    2082.500  0.8919770E+13  0.2427298E-01
    2083.500  0.8857179E+13  0.2410265E-01
    2084.500  0.8794589E+13  0.2393233E-01
    2085.500  0.8731999E+13  0.2376200E-01
    2086.500  0.8669409E+13  0.2359168E-01
    2087.500  0.8606818E+13  0.2342136E-01
    2088.500  0.8544228E+13  0.2325103E-01
    2089.500  0.8481638E+13  0.2308071E-01
    2090.500  0.8419047E+13  0.2291038E-01
    2091.500  0.8356457E+13  0.2274006E-01
    2092.500  0.8293867E+13  0.2256973E-01
    2093.500  0.8231276E+13  0.2239941E-01
    2094.500  0.8168686E+13  0.2222909E-01
    2095.500  0.8106096E+13  0.2205876E-01
    2096.500  0.8043506E+13  0.2188844E-01
    2097.500  0.7980915E+13  0.2171811E-01
    2098.500  0.7918325E+13  0.2154779E-01
    2099.500  0.7855735E+13  0.2137746E-01
