 % time (yr) / global pCO2_13C sea->air transfer flux (mol yr-1) / global pCO2_13C (o/oo)
    2010.500 -0.2031972E+13       -35.821
    2011.500 -0.1759918E+13       -36.321
    2012.500 -0.1600945E+13       -35.739
    2013.500 -0.1485128E+13       -34.813
    2014.500 -0.1392003E+13       -33.754
    2015.500 -0.1316109E+13       -32.595
    2016.500 -0.1251379E+13       -31.437
    2017.500 -0.1192575E+13       -30.325
    2018.500 -0.1143301E+13       -29.231
    2019.500 -0.1098088E+13       -28.166
    2020.500 -0.1052759E+13       -27.156
    2021.500 -0.1021183E+13       -26.204
    2022.500 -0.9880058E+12       -25.310
    2023.500 -0.9524424E+12       -24.427
    2024.500 -0.9256365E+12       -23.629
    2025.500 -0.9009816E+12       -22.829
    2026.500 -0.8731286E+12       -22.149
    2027.500 -0.8454649E+12       -21.449
    2028.500 -0.8287025E+12       -20.848
    2029.500 -0.8075098E+12       -20.312
    2030.500 -0.7864076E+12       -19.801
    2031.500 -0.7684136E+12       -19.284
    2032.500 -0.7497548E+12       -18.785
    2033.500 -0.7364144E+12       -18.365
    2034.500 -0.7152313E+12       -18.006
    2035.500 -0.7013816E+12       -17.631
    2036.500 -0.6863605E+12       -17.264
    2037.500 -0.6731661E+12       -16.927
    2038.500 -0.6589033E+12       -16.621
    2039.500 -0.6462501E+12       -16.332
    2040.500 -0.6329742E+12       -16.058
    2041.500 -0.6211933E+12       -15.760
    2042.500 -0.6119225E+12       -15.523
    2043.500 -0.5971581E+12       -15.309
    2044.500 -0.5844604E+12       -15.061
    2045.500 -0.5763708E+12       -14.920
    2046.500 -0.5636702E+12       -14.689
    2047.500 -0.5544844E+12       -14.519
    2048.500 -0.5438097E+12       -14.296
    2049.500 -0.5370286E+12       -14.318
    2050.500 -0.5249701E+12       -14.107
    2051.500 -0.5169244E+12       -14.029
    2052.500 -0.5093445E+12       -13.881
    2053.500 -0.5002194E+12       -13.774
    2054.500 -0.4917103E+12       -13.640
    2055.500 -0.4842438E+12       -13.442
    2056.500 -0.4777200E+12       -13.324
    2057.500 -0.4683350E+12       -13.308
    2058.500 -0.4595581E+12       -13.122
    2059.500 -0.4551390E+12       -13.081
    2060.500 -0.4466957E+12       -13.012
    2061.500 -0.4390177E+12       -12.906
    2062.500 -0.4317854E+12       -12.804
    2063.500 -0.4264789E+12       -12.748
    2064.500 -0.4211390E+12       -12.701
    2065.500 -0.4149189E+12       -12.645
    2066.500 -0.4080992E+12       -12.543
    2067.500 -0.4032192E+12       -12.452
    2068.500 -0.3945698E+12       -12.386
    2069.500 -0.3877090E+12       -12.278
    2070.500 -0.3812805E+12       -12.278
    2071.500 -0.3742939E+12       -12.186
    2072.500 -0.3716011E+12       -12.137
    2073.500 -0.3667856E+12       -12.101
    2074.500 -0.3580531E+12       -11.993
    2075.500 -0.3531713E+12       -11.958
    2076.500 -0.3464737E+12       -11.950
    2077.500 -0.3410051E+12       -11.890
    2078.500 -0.3361322E+12       -11.835
    2079.500 -0.3310711E+12       -11.792
    2080.500 -0.3245561E+12       -11.695
    2081.500 -0.3250076E+12       -11.729
    2082.500 -0.3152367E+12       -11.597
    2083.500 -0.3107329E+12       -11.551
    2084.500 -0.3068553E+12       -11.511
    2085.500 -0.2999786E+12       -11.508
    2086.500 -0.2951331E+12       -11.427
    2087.500 -0.2916068E+12       -11.438
    2088.500 -0.2849901E+12       -11.445
    2089.500 -0.2802980E+12       -11.330
    2090.500 -0.2765040E+12       -11.299
    2091.500 -0.2694187E+12       -11.244
    2092.500 -0.2666033E+12       -11.183
    2093.500 -0.2598535E+12       -11.091
    2094.500 -0.2531998E+12       -11.083
    2095.500 -0.2508170E+12       -11.079
    2096.500 -0.2456674E+12       -11.101
    2097.500 -0.2406403E+12       -11.114
    2098.500 -0.2346180E+12       -10.989
    2099.500 -0.2315881E+12       -11.006
