 % time (yr) / global pCO2_13C sea->air transfer flux (mol yr-1) / global pCO2_13C (o/oo)
    2010.500 -0.2030897E+13       -35.833
    2011.500 -0.1757639E+13       -36.351
    2012.500 -0.1598454E+13       -35.773
    2013.500 -0.1482532E+13       -34.849
    2014.500 -0.1389386E+13       -33.792
    2015.500 -0.1313444E+13       -32.633
    2016.500 -0.1249084E+13       -31.476
    2017.500 -0.1189537E+13       -30.360
    2018.500 -0.1140068E+13       -29.258
    2019.500 -0.1097386E+13       -28.188
    2020.500 -0.1049100E+13       -27.211
    2021.500 -0.1019248E+13       -26.263
    2022.500 -0.9793988E+12       -25.330
    2023.500 -0.9490483E+12       -24.468
    2024.500 -0.9208893E+12       -23.655
    2025.500 -0.8955277E+12       -22.907
    2026.500 -0.8695373E+12       -22.200
    2027.500 -0.8466306E+12       -21.552
    2028.500 -0.8256077E+12       -20.918
    2029.500 -0.8051614E+12       -20.347
    2030.500 -0.7854186E+12       -19.805
    2031.500 -0.7663754E+12       -19.331
    2032.500 -0.7482489E+12       -18.834
    2033.500 -0.7316739E+12       -18.374
    2034.500 -0.7183890E+12       -17.963
    2035.500 -0.6987707E+12       -17.545
    2036.500 -0.6859489E+12       -17.171
    2037.500 -0.6717466E+12       -16.986
    2038.500 -0.6554230E+12       -16.640
    2039.500 -0.6439166E+12       -16.360
    2040.500 -0.6307792E+12       -16.052
    2041.500 -0.6177564E+12       -15.723
    2042.500 -0.6073375E+12       -15.586
    2043.500 -0.5949246E+12       -15.283
    2044.500 -0.5847850E+12       -15.172
    2045.500 -0.5707484E+12       -14.854
    2046.500 -0.5615740E+12       -14.673
    2047.500 -0.5544017E+12       -14.654
    2048.500 -0.5427086E+12       -14.442
    2049.500 -0.5326036E+12       -14.251
    2050.500 -0.5228920E+12       -14.201
    2051.500 -0.5167189E+12       -13.965
    2052.500 -0.5079671E+12       -13.771
    2053.500 -0.4962672E+12       -13.687
    2054.500 -0.4879327E+12       -13.656
    2055.500 -0.4790950E+12       -13.417
    2056.500 -0.4733366E+12       -13.413
    2057.500 -0.4659971E+12       -13.287
    2058.500 -0.4589924E+12       -13.275
    2059.500 -0.4521647E+12       -13.124
    2060.500 -0.4448132E+12       -12.965
    2061.500 -0.4382256E+12       -12.995
    2062.500 -0.4297802E+12       -12.847
    2063.500 -0.4230822E+12       -12.680
    2064.500 -0.4181851E+12       -12.726
    2065.500 -0.4092257E+12       -12.535
    2066.500 -0.4055162E+12       -12.595
    2067.500 -0.3967101E+12       -12.442
    2068.500 -0.3934837E+12       -12.471
    2069.500 -0.3867894E+12       -12.398
    2070.500 -0.3810137E+12       -12.318
    2071.500 -0.3708449E+12       -12.102
    2072.500 -0.3685558E+12       -12.164
    2073.500 -0.3606994E+12       -12.107
    2074.500 -0.3544303E+12       -12.060
    2075.500 -0.3477494E+12       -11.716
    2076.500 -0.3474875E+12       -11.888
    2077.500 -0.3393669E+12       -11.884
    2078.500 -0.3324233E+12       -11.663
    2079.500 -0.3304281E+12       -11.740
    2080.500 -0.3205165E+12       -11.757
    2081.500 -0.3157129E+12       -11.519
    2082.500 -0.3113208E+12       -11.513
    2083.500 -0.3061962E+12       -11.660
    2084.500 -0.2998971E+12       -11.460
    2085.500 -0.2956435E+12       -11.490
    2086.500 -0.2930108E+12       -11.335
    2087.500 -0.2902624E+12       -11.605
    2088.500 -0.2826472E+12       -11.412
    2089.500 -0.2739118E+12       -11.278
    2090.500 -0.2703455E+12       -11.271
    2091.500 -0.2641072E+12       -11.263
    2092.500 -0.2593419E+12       -11.159
    2093.500 -0.2566068E+12       -11.277
    2094.500 -0.2494119E+12       -11.078
    2095.500 -0.2454531E+12       -11.109
    2096.500 -0.2388559E+12       -11.005
    2097.500 -0.2344103E+12       -10.965
    2098.500 -0.2310168E+12       -11.133
    2099.500 -0.2244882E+12       -10.859
