 % time (yr) / global det flux (mol yr-1) / global det density (mol m-2 yr-1)
    2010.500  0.1541481E+14  0.4194765E-01
    2011.500  0.1564303E+14  0.4256868E-01
    2012.500  0.1554222E+14  0.4229436E-01
    2013.500  0.1544141E+14  0.4202004E-01
    2014.500  0.1534061E+14  0.4174571E-01
    2015.500  0.1523980E+14  0.4147139E-01
    2016.500  0.1513899E+14  0.4119707E-01
    2017.500  0.1503818E+14  0.4092274E-01
    2018.500  0.1493737E+14  0.4064842E-01
    2019.500  0.1483657E+14  0.4037410E-01
    2020.500  0.1473576E+14  0.4009977E-01
    2021.500  0.1463495E+14  0.3982545E-01
    2022.500  0.1453414E+14  0.3955113E-01
    2023.500  0.1443334E+14  0.3927680E-01
    2024.500  0.1433253E+14  0.3900248E-01
    2025.500  0.1423172E+14  0.3872816E-01
    2026.500  0.1413091E+14  0.3845383E-01
    2027.500  0.1403011E+14  0.3817951E-01
    2028.500  0.1392930E+14  0.3790519E-01
    2029.500  0.1382849E+14  0.3763086E-01
    2030.500  0.1372768E+14  0.3735654E-01
    2031.500  0.1362688E+14  0.3708222E-01
    2032.500  0.1352607E+14  0.3680789E-01
    2033.500  0.1342526E+14  0.3653357E-01
    2034.500  0.1332445E+14  0.3625925E-01
    2035.500  0.1322365E+14  0.3598492E-01
    2036.500  0.1312284E+14  0.3571060E-01
    2037.500  0.1302203E+14  0.3543628E-01
    2038.500  0.1292122E+14  0.3516196E-01
    2039.500  0.1282042E+14  0.3488763E-01
    2040.500  0.1271961E+14  0.3461331E-01
    2041.500  0.1261880E+14  0.3433899E-01
    2042.500  0.1251799E+14  0.3406466E-01
    2043.500  0.1241718E+14  0.3379034E-01
    2044.500  0.1231638E+14  0.3351602E-01
    2045.500  0.1221557E+14  0.3324169E-01
    2046.500  0.1211476E+14  0.3296737E-01
    2047.500  0.1201395E+14  0.3269305E-01
    2048.500  0.1191315E+14  0.3241872E-01
    2049.500  0.1181234E+14  0.3214440E-01
    2050.500  0.1172798E+14  0.3191484E-01
    2051.500  0.1166078E+14  0.3173196E-01
    2052.500  0.1159357E+14  0.3154908E-01
    2053.500  0.1152637E+14  0.3136620E-01
    2054.500  0.1145916E+14  0.3118332E-01
    2055.500  0.1139196E+14  0.3100043E-01
    2056.500  0.1132475E+14  0.3081755E-01
    2057.500  0.1125755E+14  0.3063467E-01
    2058.500  0.1119034E+14  0.3045179E-01
    2059.500  0.1112314E+14  0.3026890E-01
    2060.500  0.1105593E+14  0.3008602E-01
    2061.500  0.1098873E+14  0.2990314E-01
    2062.500  0.1092152E+14  0.2972026E-01
    2063.500  0.1085432E+14  0.2953738E-01
    2064.500  0.1078711E+14  0.2935449E-01
    2065.500  0.1071991E+14  0.2917161E-01
    2066.500  0.1065270E+14  0.2898873E-01
    2067.500  0.1058550E+14  0.2880585E-01
    2068.500  0.1051829E+14  0.2862296E-01
    2069.500  0.1045109E+14  0.2844008E-01
    2070.500  0.1038388E+14  0.2825720E-01
    2071.500  0.1031668E+14  0.2807432E-01
    2072.500  0.1024947E+14  0.2789144E-01
    2073.500  0.1018227E+14  0.2770855E-01
    2074.500  0.1011506E+14  0.2752567E-01
    2075.500  0.1004786E+14  0.2734279E-01
    2076.500  0.9980651E+13  0.2715991E-01
    2077.500  0.9913446E+13  0.2697703E-01
    2078.500  0.9846241E+13  0.2679414E-01
    2079.500  0.9779036E+13  0.2661126E-01
    2080.500  0.9711831E+13  0.2642838E-01
    2081.500  0.9644626E+13  0.2624550E-01
    2082.500  0.9577421E+13  0.2606261E-01
    2083.500  0.9510216E+13  0.2587973E-01
    2084.500  0.9443011E+13  0.2569685E-01
    2085.500  0.9375806E+13  0.2551397E-01
    2086.500  0.9308601E+13  0.2533109E-01
    2087.500  0.9241396E+13  0.2514820E-01
    2088.500  0.9174191E+13  0.2496532E-01
    2089.500  0.9106986E+13  0.2478244E-01
    2090.500  0.9039781E+13  0.2459956E-01
    2091.500  0.8972576E+13  0.2441667E-01
    2092.500  0.8905371E+13  0.2423379E-01
    2093.500  0.8838165E+13  0.2405091E-01
    2094.500  0.8770960E+13  0.2386803E-01
    2095.500  0.8703755E+13  0.2368515E-01
    2096.500  0.8636550E+13  0.2350226E-01
    2097.500  0.8569345E+13  0.2331938E-01
    2098.500  0.8502140E+13  0.2313650E-01
    2099.500  0.8434935E+13  0.2295362E-01
