 % time (yr) / global pCO2 flux (mol yr-1) / global pCO2 density (mol m-2 yr-1)  NOTE: is the atmospheric forcing flux *net* of the sea-air gas exchange flux.
    2010.500 -0.1900664E+15      -0.517
    2011.500 -0.1645804E+15      -0.448
    2012.500 -0.1495861E+15      -0.407
    2013.500 -0.1386065E+15      -0.377
    2014.500 -0.1297573E+15      -0.353
    2015.500 -0.1225197E+15      -0.333
    2016.500 -0.1163784E+15      -0.317
    2017.500 -0.1107041E+15      -0.301
    2018.500 -0.1059812E+15      -0.288
    2019.500 -0.1019022E+15      -0.277
    2020.500 -0.9732169E+14      -0.265
    2021.500 -0.9446144E+14      -0.257
    2022.500 -0.9068231E+14      -0.247
    2023.500 -0.8779537E+14      -0.239
    2024.500 -0.8512017E+14      -0.232
    2025.500 -0.8271328E+14      -0.225
    2026.500 -0.8025529E+14      -0.218
    2027.500 -0.7808994E+14      -0.213
    2028.500 -0.7610205E+14      -0.207
    2029.500 -0.7417459E+14      -0.202
    2030.500 -0.7231622E+14      -0.197
    2031.500 -0.7052913E+14      -0.192
    2032.500 -0.6882642E+14      -0.187
    2033.500 -0.6727061E+14      -0.183
    2034.500 -0.6602186E+14      -0.180
    2035.500 -0.6419183E+14      -0.175
    2036.500 -0.6299027E+14      -0.171
    2037.500 -0.6167458E+14      -0.168
    2038.500 -0.6015496E+14      -0.164
    2039.500 -0.5908223E+14      -0.161
    2040.500 -0.5785893E+14      -0.157
    2041.500 -0.5664564E+14      -0.154
    2042.500 -0.5568261E+14      -0.152
    2043.500 -0.5452795E+14      -0.148
    2044.500 -0.5359263E+14      -0.146
    2045.500 -0.5228958E+14      -0.142
    2046.500 -0.5143969E+14      -0.140
    2047.500 -0.5078176E+14      -0.138
    2048.500 -0.4970010E+14      -0.135
    2049.500 -0.4876538E+14      -0.133
    2050.500 -0.4787375E+14      -0.130
    2051.500 -0.4729739E+14      -0.129
    2052.500 -0.4648725E+14      -0.127
    2053.500 -0.4541271E+14      -0.124
    2054.500 -0.4464865E+14      -0.122
    2055.500 -0.4382943E+14      -0.119
    2056.500 -0.4330246E+14      -0.118
    2057.500 -0.4262563E+14      -0.116
    2058.500 -0.4198440E+14      -0.114
    2059.500 -0.4135358E+14      -0.113
    2060.500 -0.4067475E+14      -0.111
    2061.500 -0.4007360E+14      -0.109
    2062.500 -0.3929547E+14      -0.107
    2063.500 -0.3867658E+14      -0.105
    2064.500 -0.3823069E+14      -0.104
    2065.500 -0.3740446E+14      -0.102
    2066.500 -0.3706761E+14      -0.101
    2067.500 -0.3625710E+14      -0.099
    2068.500 -0.3596329E+14      -0.098
    2069.500 -0.3534885E+14      -0.096
    2070.500 -0.3481823E+14      -0.095
    2071.500 -0.3388162E+14      -0.092
    2072.500 -0.3367459E+14      -0.092
    2073.500 -0.3295488E+14      -0.090
    2074.500 -0.3238057E+14      -0.088
    2075.500 -0.3175928E+14      -0.086
    2076.500 -0.3174084E+14      -0.086
    2077.500 -0.3099892E+14      -0.084
    2078.500 -0.3035797E+14      -0.083
    2079.500 -0.3017809E+14      -0.082
    2080.500 -0.2927335E+14      -0.080
    2081.500 -0.2882776E+14      -0.078
    2082.500 -0.2842656E+14      -0.077
    2083.500 -0.2796275E+14      -0.076
    2084.500 -0.2738201E+14      -0.075
    2085.500 -0.2699444E+14      -0.073
    2086.500 -0.2674990E+14      -0.073
    2087.500 -0.2650616E+14      -0.072
    2088.500 -0.2580577E+14      -0.070
    2089.500 -0.2500488E+14      -0.068
    2090.500 -0.2467914E+14      -0.067
    2091.500 -0.2410946E+14      -0.066
    2092.500 -0.2367199E+14      -0.064
    2093.500 -0.2342511E+14      -0.064
    2094.500 -0.2276377E+14      -0.062
    2095.500 -0.2240315E+14      -0.061
    2096.500 -0.2179874E+14      -0.059
    2097.500 -0.2139216E+14      -0.058
    2098.500 -0.2108601E+14      -0.057
    2099.500 -0.2048450E+14      -0.056
