 % time (yr) / temperature (C) / _surT (C) / _benT (degrees C)
    2010.500    3.680856   19.807446    1.466925
    2011.500    3.682764   19.813833    1.467283
    2012.500    3.684602   19.817511    1.467644
    2013.500    3.686382   19.822973    1.468007
    2014.500    3.688108   19.827344    1.468370
    2015.500    3.689795   19.830111    1.468735
    2016.500    3.691435   19.833089    1.469099
    2017.500    3.693034   19.833347    1.469463
    2018.500    3.694595   19.836074    1.469827
    2019.500    3.696123   19.840682    1.470191
    2020.500    3.697606   19.835479    1.470555
    2021.500    3.699067   19.845140    1.470920
    2022.500    3.700499   19.839229    1.471285
    2023.500    3.701902   19.840484    1.471651
    2024.500    3.703276   19.840336    1.472016
    2025.500    3.704630   19.843178    1.472383
    2026.500    3.705956   19.842259    1.472751
    2027.500    3.707262   19.845070    1.473120
    2028.500    3.708540   19.845031    1.473493
    2029.500    3.709800   19.846299    1.473868
    2030.500    3.711037   19.845911    1.474243
    2031.500    3.712261   19.847629    1.474620
    2032.500    3.713458   19.845993    1.474997
    2033.500    3.714646   19.844279    1.475377
    2034.500    3.715824   19.844643    1.475758
    2035.500    3.716978   19.839766    1.476142
    2036.500    3.718129   19.839564    1.476527
    2037.500    3.719261   19.848304    1.476914
    2038.500    3.720363   19.846320    1.477303
    2039.500    3.721456   19.846769    1.477694
    2040.500    3.722535   19.844841    1.478087
    2041.500    3.723607   19.840258    1.478481
    2042.500    3.724663   19.845401    1.478877
    2043.500    3.725708   19.840490    1.479274
    2044.500    3.726736   19.845657    1.479673
    2045.500    3.727754   19.838957    1.480074
    2046.500    3.728768   19.838564    1.480476
    2047.500    3.729768   19.845226    1.480880
    2048.500    3.730758   19.842896    1.481285
    2049.500    3.731734   19.841782    1.481692
    2050.500    3.732698   19.845414    1.482101
    2051.500    3.733653   19.840687    1.482510
    2052.500    3.734603   19.838319    1.482921
    2053.500    3.735538   19.838947    1.483332
    2054.500    3.736453   19.842450    1.483744
    2055.500    3.737366   19.837003    1.484157
    2056.500    3.738267   19.841035    1.484570
    2057.500    3.739164   19.839660    1.484983
    2058.500    3.740044   19.843472    1.485397
    2059.500    3.740918   19.841064    1.485811
    2060.500    3.741794   19.837726    1.486226
    2061.500    3.742650   19.842193    1.486642
    2062.500    3.743499   19.839268    1.487058
    2063.500    3.744353   19.835855    1.487476
    2064.500    3.745191   19.839450    1.487894
    2065.500    3.746026   19.835532    1.488313
    2066.500    3.746849   19.839391    1.488733
    2067.500    3.747664   19.836042    1.489153
    2068.500    3.748472   19.838719    1.489573
    2069.500    3.749273   19.837688    1.489993
    2070.500    3.750066   19.836778    1.490413
    2071.500    3.750854   19.831450    1.490833
    2072.500    3.751640   19.834419    1.491253
    2073.500    3.752413   19.834529    1.491674
    2074.500    3.753178   19.833658    1.492095
    2075.500    3.753943   19.823622    1.492516
    2076.500    3.754717   19.828525    1.492936
    2077.500    3.755476   19.829072    1.493356
    2078.500    3.756220   19.823877    1.493776
    2079.500    3.756974   19.826055    1.494196
    2080.500    3.757698   19.828024    1.494615
    2081.500    3.758421   19.822171    1.495035
    2082.500    3.759144   19.822061    1.495454
    2083.500    3.759861   19.827058    1.495872
    2084.500    3.760575   19.822491    1.496291
    2085.500    3.761275   19.823572    1.496709
    2086.500    3.761986   19.819223    1.497127
    2087.500    3.762682   19.826025    1.497545
    2088.500    3.763375   19.822624    1.497963
    2089.500    3.764052   19.820642    1.498381
    2090.500    3.764726   19.820559    1.498799
    2091.500    3.765394   19.821555    1.499217
    2092.500    3.766058   19.819403    1.499634
    2093.500    3.766722   19.821756    1.500050
    2094.500    3.767375   19.818622    1.500466
    2095.500    3.768027   19.819126    1.500881
    2096.500    3.768669   19.817631    1.501295
    2097.500    3.769319   19.817185    1.501709
    2098.500    3.769955   19.820986    1.502122
    2099.500    3.770600   19.816393    1.502534
