 % time (yr) / global POFe flux (mol yr-1) / global POFe density (mol m-2 yr-1)
    2010.500  0.2635877E+10  0.7172896E-05
    2011.500  0.2684956E+10  0.7306452E-05
    2012.500  0.2680975E+10  0.7295620E-05
    2013.500  0.2676861E+10  0.7284424E-05
    2014.500  0.2673189E+10  0.7274431E-05
    2015.500  0.2669414E+10  0.7264160E-05
    2016.500  0.2665334E+10  0.7253055E-05
    2017.500  0.2661674E+10  0.7243097E-05
    2018.500  0.2657142E+10  0.7230762E-05
    2019.500  0.2652903E+10  0.7219229E-05
    2020.500  0.2649198E+10  0.7209145E-05
    2021.500  0.2644148E+10  0.7195403E-05
    2022.500  0.2640372E+10  0.7185129E-05
    2023.500  0.2636090E+10  0.7173475E-05
    2024.500  0.2631572E+10  0.7161181E-05
    2025.500  0.2626657E+10  0.7147805E-05
    2026.500  0.2622043E+10  0.7135249E-05
    2027.500  0.2616972E+10  0.7121450E-05
    2028.500  0.2612048E+10  0.7108051E-05
    2029.500  0.2607036E+10  0.7094413E-05
    2030.500  0.2602128E+10  0.7081056E-05
    2031.500  0.2596848E+10  0.7066687E-05
    2032.500  0.2592021E+10  0.7053551E-05
    2033.500  0.2587299E+10  0.7040702E-05
    2034.500  0.2581744E+10  0.7025587E-05
    2035.500  0.2576940E+10  0.7012513E-05
    2036.500  0.2571516E+10  0.6997752E-05
    2037.500  0.2564568E+10  0.6978846E-05
    2038.500  0.2559844E+10  0.6965992E-05
    2039.500  0.2554213E+10  0.6950667E-05
    2040.500  0.2548611E+10  0.6935423E-05
    2041.500  0.2543137E+10  0.6920526E-05
    2042.500  0.2536945E+10  0.6903678E-05
    2043.500  0.2531221E+10  0.6888101E-05
    2044.500  0.2524952E+10  0.6871041E-05
    2045.500  0.2519826E+10  0.6857092E-05
    2046.500  0.2513549E+10  0.6840011E-05
    2047.500  0.2506736E+10  0.6821472E-05
    2048.500  0.2500850E+10  0.6805452E-05
    2049.500  0.2494643E+10  0.6788561E-05
    2050.500  0.2488358E+10  0.6771459E-05
    2051.500  0.2482990E+10  0.6756852E-05
    2052.500  0.2477366E+10  0.6741546E-05
    2053.500  0.2471081E+10  0.6724444E-05
    2054.500  0.2465210E+10  0.6708468E-05
    2055.500  0.2459816E+10  0.6693788E-05
    2056.500  0.2453944E+10  0.6677809E-05
    2057.500  0.2448204E+10  0.6662190E-05
    2058.500  0.2442511E+10  0.6646699E-05
    2059.500  0.2437304E+10  0.6632528E-05
    2060.500  0.2431439E+10  0.6616567E-05
    2061.500  0.2425561E+10  0.6600573E-05
    2062.500  0.2420699E+10  0.6587342E-05
    2063.500  0.2415070E+10  0.6572023E-05
    2064.500  0.2409251E+10  0.6556188E-05
    2065.500  0.2403962E+10  0.6541795E-05
    2066.500  0.2398147E+10  0.6525971E-05
    2067.500  0.2392818E+10  0.6511470E-05
    2068.500  0.2387059E+10  0.6495798E-05
    2069.500  0.2381481E+10  0.6480619E-05
    2070.500  0.2376068E+10  0.6465889E-05
    2071.500  0.2370813E+10  0.6451588E-05
    2072.500  0.2364741E+10  0.6435067E-05
    2073.500  0.2359250E+10  0.6420123E-05
    2074.500  0.2353824E+10  0.6405358E-05
    2075.500  0.2349499E+10  0.6393588E-05
    2076.500  0.2343319E+10  0.6376770E-05
    2077.500  0.2337138E+10  0.6359952E-05
    2078.500  0.2333197E+10  0.6349227E-05
    2079.500  0.2326262E+10  0.6330356E-05
    2080.500  0.2320861E+10  0.6315658E-05
    2081.500  0.2316144E+10  0.6302820E-05
    2082.500  0.2310234E+10  0.6286738E-05
    2083.500  0.2304247E+10  0.6270447E-05
    2084.500  0.2299111E+10  0.6256470E-05
    2085.500  0.2293825E+10  0.6242085E-05
    2086.500  0.2288449E+10  0.6227455E-05
    2087.500  0.2282548E+10  0.6211399E-05
    2088.500  0.2276950E+10  0.6196165E-05
    2089.500  0.2271477E+10  0.6181270E-05
    2090.500  0.2265979E+10  0.6166308E-05
    2091.500  0.2260200E+10  0.6150584E-05
    2092.500  0.2254927E+10  0.6136232E-05
    2093.500  0.2249102E+10  0.6120382E-05
    2094.500  0.2243752E+10  0.6105824E-05
    2095.500  0.2237842E+10  0.6089742E-05
    2096.500  0.2232725E+10  0.6075817E-05
    2097.500  0.2226562E+10  0.6059045E-05
    2098.500  0.2221061E+10  0.6044076E-05
    2099.500  0.2215234E+10  0.6028218E-05
